1000001110100011
1000001110001111
1000001101010001
1000001101011100
1000001101000111
1000001101010001
1000001101000111
1000001100101000
1000001011110101
1000001011101011
1000001011010111
1000001011100001
1000001011110101
1000001011010111
1000001010001111
1000001001110000
1000001010001111
1000001010011001
1000001010100011
1000001010000101
1000001001011100
1000001001100110
1000001000111101
1000001001000111
1000001000111101
1000001000110011
1000001000011110
1000001000011110
1000001000101000
1000001000111101
1000001001010001
1000001001011100
1000001001011100
1000001001110000
1000001010001111
1000001010001111
1000001010101110
1000001010100011
1000001010101110
1000001011100001
1000001011010111
1000001011101011
1000001100001010
1000001100111101
1000001100111101
1000001101010001
1000001110000101
1000001101111010
1000001110001111
1000001110000101
1000001101011100
1000001101100110
1000001110001111
1000001110011001
1000001110101110
1000001110001111
1000001110011001
1000001110100011
1000001110111000
1000001111000010
1000001110111000
1000001110000101
1000001110000101
1000001110101110
1000001110111000
1000001110111000
1000001110100011
1000001110100011
1000001111010111
1000001111101011
1000001111010111
1000001111010111
1000010000001010
1000001111100001
1000001110101110
1000001110100011
1000001110111000
1000001111010111
1000001111101011
1000001110111000
1000001101111010
1000001101110000
1000001110100011
1000001111100001
1000001111101011
1000001110101110
1000001110001111
1000001110011001
1000001111000010
1000001111100001
1000001111000010
1000001110011001
1000001110001111
1000001110000101
1000001101100110
1000001110101110
1000001110101110
1000001110100011
1000001110100011
1000001110100011
1000001110011001
1000001110101110
1000001110100011
1000001110000101
1000001101110000
1000001101110000
1000001110001111
1000001110011001
1000001110011001
1000001110001111
1000001110001111
1000001110101110
1000001111000010
1000001110101110
1000001110111000
1000001110011001
1000001110001111
1000001101110000
1000001110001111
1000001110101110
1000001110101110
1000001101111010
1000001110000101
1000001101110000
1000001101100110
1000001110001111
1000001110100011
1000001110111000
1000001110111000
1000001111000010
1000001110101110
1000001110100011
1000001110001111
1000001110001111
1000001110100011
1000001110011001
1000001110001111
1000001110011001
1000001111000010
1000001111010111
1000001110100011
1000001101111010
1000001110000101
1000001110011001
1000001111000010
1000001110111000
1000001110001111
1000001110001111
1000001110111000
1000001111000010
1000001110111000
1000001110111000
1000001110111000
1000001111001100
1000001111010111
1000001111010111
1000001111001100
1000001111001100
1000001110100011
1000001110101110
1000001111000010
1000001111010111
1000001111010111
1000001110101110
1000001110101110
1000001110101110
1000001110101110
1000001110101110
1000001111000010
1000001110011001
1000001110000101
1000001101011100
1000001101010001
1000001101100110
1000001101100110
1000001101011100
1000001100111101
1000001100011110
1000001100110011
1000001101010001
1000001100110011
1000001011101011
1000001010001111
1000001001010001
1000001001110000
1000001011000010
1000001100010100
1000001011000010
1000001010111000
1000001010011001
1000001011001100
1000001100001010
1000001100110011
1000001100011110
1000001100001010
1000001100110011
1000001100111101
1000001101110000
1000001110011001
1000001110100011
1000001110011001
1000001110101110
1000001111000010
1000001111001100
1000001111101011
1000001111001100
1000001111000010
1000001110111000
1000001110111000
1000001111001100
1000001111000010
1000001110100011
1000001110101110
1000010000001010
1000010001100110
1000010001100110
1000010001000111
1000010000000000
1000001110111000
1000001110011001
1000001111001100
1000010000010100
1000010001000111
1000010001011100
1000010000101000
1000010000110011
1000010000110011
1000010001010001
1000010001000111
1000001110101110
1000001001111010
1000000010100011
0000000101111010
0000001111001100
0000011000111101
0000100000110011
0000100010000101
0000011011001100
0000010000011110
0000000110100011
1000000011000010
1000001001010001
1000001100001010
1000001100111101
1000001110111000
1000001111100001
1000010000001010
1000010000001010
1000010000001010
1000010000001010
1000010001010001
1000010010000101
1000010010111000
1000010010011001
1000010001110000
1000010001110000
1000010001111010
1000010010000101
1000010010101110
1000010010011001
1000010010000101
1000010010001111
1000010001111010
1000010010000101
1000010010001111
1000010010001111
1000010001111010
1000010001100110
1000010010001111
1000010001111010
1000010010100011
1000010010001111
1000010010011001
1000010010000101
1000010010011001
1000010010001111
1000010010001111
1000010010100011
1000010010001111
1000010001111010
1000010010000101
1000010001111010
1000010010000101
1000010001110000
1000010001110000
1000010010000101
1000010001110000
1000010001111010
1000010010011001
1000010010000101
1000010001100110
1000010001010001
1000010000111101
1000010001010001
1000010010001111
1000010010001111
1000010010000101
1000010010000101
1000010001110000
1000010001110000
1000010001110000
1000010000111101
1000010000101000
1000010000110011
1000010000110011
1000010001000111
1000010000111101
1000010000101000
1000010000000000
1000010000000000
1000010000011110
1000010000110011
1000010000110011
1000001111101011
1000001111001100
1000001110111000
1000001111010111
1000001111000010
1000001111000010
1000001110011001
1000001110001111
1000001110000101
1000001101111010
1000001110001111
1000001110001111
1000001101111010
1000001101111010
1000001101011100
1000001100101000
1000001100001010
1000001011010111
1000001010111000
1000001010100011
1000001011000010
1000001010111000
1000001011000010
1000001011000010
1000001010100011
1000001001111010
1000001001110000
1000001001011100
1000001001100110
1000001010000101
1000001001110000
1000001000111101
1000001001011100
1000001001100110
1000001001110000
1000001001111010
1000001010000101
1000001010011001
1000001010001111
1000001010001111
1000001011001100
1000001011100001
1000001011110101
1000001011110101
1000001011110101
1000001100010100
1000001100111101
1000001101000111
1000001100111101
1000001101000111
1000001101010001
1000001101111010
1000001110001111
1000001111000010
1000001110001111
1000001110001111
1000001101100110
1000001110100011
1000001110101110
1000001110111000
1000001110111000
1000001110111000
1000001110111000
1000001110100011
1000001110011001
1000001110101110
1000001110011001
1000001110001111
1000001110100011
1000001110111000
1000001110101110
1000001110111000
1000001110001111
1000001101110000
1000001101100110
1000001110001111
1000001110000101
1000001110011001
1000001110100011
1000001101111010
1000001101110000
1000001101110000
1000001110100011
1000001110111000
1000001110000101
1000001101100110
1000001101011100
1000001110000101
1000001110011001
1000001101111010
1000001101011100
1000001100110011
1000001100110011
1000001101000111
1000001101100110
1000001101100110
1000001101010001
1000001101010001
1000001101100110
1000001101010001
1000001101010001
1000001101010001
1000001100110011
1000001100110011
1000001101000111
1000001101100110
1000001101100110
1000001101011100
1000001101000111
1000001100110011
1000001101000111
1000001101100110
1000001101111010
1000001110000101
1000001100011110
1000001100010100
1000001011110101
1000001011100001
1000001011001100
1000001011010111
1000001100011110
1000001101000111
1000001110011001
1000001110101110
1000001110111000
1000001110111000
1000001110000101
1000001100011110
1000001011010111
1000001001110000
1000001010000101
1000001011110101
1000001101100110
1000001101111010
1000001101111010
1000001101011100
1000001100011110
1000001011110101
1000001011101011
1000001011001100
1000001100000000
1000001100011110
1000001101100110
1000001101011100
1000001101000111
1000001100111101
1000001100101000
1000001100101000
1000001100010100
1000001100011110
1000001100010100
1000001100001010
1000001100000000
1000001011101011
1000001011100001
1000001011010111
1000001011010111
1000001011001100
1000001011110101
1000001100000000
1000001100001010
1000001100010100
1000001011110101
1000001011010111
1000001011101011
1000001011110101
1000001100001010
1000001100001010
1000001011101011
1000001010111000
1000001010100011
1000001010101110
1000001011000010
1000001011001100
1000001011010111
1000001010011001
1000001001111010
1000001010001111
1000001010100011
1000001010001111
1000001001010001
1000001000001010
1000000111010111
1000000110000101
1000000101100110
1000000101111010
1000000101110000
1000000110011001
1000000110100011
1000000111000010
1000000111010111
1000000111100001
1000000111110101
1000001000000000
1000001000000000
1000001000001010
1000001000000000
1000001000000000
1000000111101011
1000001000001010
1000001000101000
1000001000110011
1000001000110011
1000001001000111
1000001000111101
1000001001110000
1000001011000010
1000001011101011
1000001011010111
1000001011101011
1000001011110101
1000001011010111
1000001100000000
1000001011101011
1000001100010100
1000001100001010
1000001100000000
1000001011100001
1000001011110101
1000001100000000
1000001100010100
1000001100000000
1000001011101011
1000001011000010
1000001011101011
1000001100010100
1000001101011100
1000001110000101
1000001110011001
1000001100001010
1000000111000010
0000000000010100
0000001010001111
0000010110001111
0000100011000010
0000101011101011
0000101100000000
0000100100001010
0000011000000000
0000001100011110
0000000011110101
1000000000011110
1000000010000101
1000000011001100
1000000101011100
1000000110011001
1000000111001100
1000000111100001
1000001000101000
1000001001110000
1000001011010111
1000001100000000
1000001100001010
1000001100101000
1000001100001010
1000001100101000
1000001100111101
1000001101100110
1000001101010001
1000001101000111
1000001100111101
1000001100110011
1000001101011100
1000001101110000
1000001101010001
1000001101010001
1000001101100110
1000001101111010
1000001101100110
1000001101110000
1000001101011100
1000001101000111
1000001100111101
1000001101010001
1000001101010001
1000001101100110
1000001101000111
1000001100110011
1000001100011110
1000001100111101
1000001101010001
1000001101011100
1000001101000111
1000001100011110
1000001100011110
1000001100101000
1000001101010001
1000001101011100
1000001100110011
1000001100101000
1000001101000111
1000001101011100
1000001101011100
1000001101010001
1000001101010001
1000001100011110
1000001100101000
1000001100011110
1000001100101000
1000001100011110
1000001100101000
1000001100011110
1000001100010100
1000001100010100
1000001100101000
1000001100010100
1000001100000000
1000001011100001
1000001100000000
1000001011110101
1000001011100001
1000001011010111
1000001010100011
1000001010001111
1000001010000101
1000001010001111
1000001010011001
1000001010001111
1000001000111101
1000001000010100
1000001000001010
1000001000010100
1000001000011110
1000001000010100
1000000111010111
1000000110100011
1000000110000101
1000000110000101
1000000110000101
1000000101111010
1000000100111101
1000000100010100
1000000011101011
1000000100000000
1000000100000000
1000000011100001
1000000011100001
1000000011010111
1000000010111000
1000000010111000
1000000010100011
1000000010100011
1000000010111000
1000000010000101
1000000010111000
1000000010111000
1000000010111000
1000000011001100
1000000011100001
1000000100000000
1000000100001010
1000000100101000
1000000101010001
1000000110000101
1000000110001111
1000000110011001
1000000110101110
1000000111010111
1000000111110101
1000001000010100
1000001000101000
1000001000011110
1000001000101000
1000001000111101
1000001001011100
1000001010011001
1000001010000101
1000001001111010
1000001001100110
1000001001010001
1000001001111010
1000001010001111
1000001010001111
1000001001110000
1000001001111010
1000001010100011
1000001011000010
1000001011010111
1000001010111000
1000001010100011
1000001010101110
1000001010011001
1000001010011001
1000001010100011
1000001010100011
1000001010001111
1000001010011001
1000001010100011
1000001010101110
1000001010101110
1000001010100011
1000001010000101
1000001010011001
1000001010001111
1000001010000101
1000001010011001
1000001001111010
1000001010000101
1000001001111010
1000001001011100
1000001001110000
1000001010000101
1000001010011001
1000001001111010
1000001001111010
1000001001110000
1000001001011100
1000001001111010
1000001001110000
1000001001011100
1000001001000111
1000001001000111
1000001001000111
1000001001100110
1000001001111010
1000001001100110
1000001001011100
1000001000111101
1000001001111010
1000001001111010
1000001001011100
1000001000110011
1000001000110011
1000001001010001
1000001001100110
1000001001111010
1000001001100110
1000001000110011
1000001000111101
1000001001000111
1000001001100110
1000001001111010
1000001001100110
1000001000111101
1000001001000111
1000001001100110
1000001001110000
1000001001111010
1000001001100110
1000001001011100
1000001001010001
1000001001000111
1000001001011100
1000001001011100
1000001000110011
1000001000111101
1000001000111101
1000001001100110
1000001001110000
1000001001100110
1000001001010001
1000001001000111
1000001000111101
1000001001000111
1000001001010001
1000001001100110
1000001001010001
1000001001011100
1000001001010001
1000001001010001
1000001001011100
1000001001100110
1000001001100110
1000001001011100
1000001001010001
1000001001011100
1000001001010001
1000001001111010
1000001001100110
1000001001010001
1000001001000111
1000001001000111
1000001001110000
1000001001100110
1000001001100110
1000001001011100
1000001000111101
1000001001000111
1000001001110000
1000001001100110
1000001001011100
1000001000101000
1000001000010100
1000001000010100
1000001000101000
1000001001000111
1000001000011110
1000001000000000
1000000111110101
1000001000001010
1000001000101000
1000001000101000
1000001000000000
1000000111010111
1000000110000101
1000000100110011
1000000100010100
1000000100010100
1000000100111101
1000000100110011
1000000100110011
1000000100110011
1000000101000111
1000000101111010
1000000110101110
1000000110100011
1000000110100011
1000000110111000
1000000111001100
1000000111010111
1000000111000010
1000000110101110
1000000111010111
1000001000000000
1000001001010001
1000001001100110
1000001001011100
1000001001110000
1000001001110000
1000001010100011
1000001010101110
1000001010101110
1000001010111000
1000001010101110
1000001010100011
1000001010001111
1000001010000101
1000001010111000
1000001010111000
1000001010000101
1000001010000101
1000001010101110
1000001011000010
1000001011001100
1000001011001100
1000001010101110
1000001010101110
1000001010100011
1000001011000010
1000001011010111
1000001011010111
1000001011101011
1000001010101110
1000000110100011
0000000000011110
0000001010001111
0000010110001111
0000100010011001
0000101010011001
0000101001110000
0000100001011100
0000010110000101
0000001011100001
0000000011010111
1000000000101000
1000000001110000
1000000011000010
1000000100101000
1000000101111010
1000000110100011
1000000110101110
1000000111100001
1000001000101000
1000001001000111
1000001001010001
1000001001100110
1000001001110000
1000001010001111
1000001010000101
1000001001110000
1000001001111010
1000001011100001
1000001101100110
1000001111000010
1000001111110101
1000001111110101
1000001111001100
1000001110100011
1000001110011001
1000001110011001
1000001110100011
1000001110011001
1000001110001111
1000001101100110
1000001101011100
1000001101011100
1000001101011100
1000001101011100
1000001101010001
1000001101010001
1000001100111101
1000001101010001
1000001101111010
1000001101111010
1000001101000111
1000001100110011
1000001101000111
1000001101000111
1000001101011100
1000001101010001
1000001101000111
1000001101010001
1000001101010001
1000001101011100
1000001101011100
1000001101111010
1000001101111010
1000001101110000
1000001110000101
1000001101111010
1000001101110000
1000001101110000
1000001101011100
1000001100111101
1000001100110011
1000001101011100
1000001101111010
1000001110001111
1000001101010001
1000001100111101
1000001101000111
1000001101010001
1000001101011100
1000001101111010
1000001101000111
1000001100110011
1000001100011110
1000001100011110
1000001100111101
1000001100101000
1000001011110101
1000001011101011
1000001011100001
1000001011100001
1000001011100001
1000001010100011
1000001010001111
1000001010000101
1000001010011001
1000001010100011
1000001010001111
1000001010001111
1000001000111101
1000001000000000
1000000111100001
1000000110101110
1000000110101110
1000000111001100
1000000110000101
1000000101010001
1000000101011100
1000000101110000
1000000110001111
1000000110101110
1000000110011001
1000000101100110
1000000101000111
1000000101100110
1000000101100110
1000000101110000
1000000101011100
1000000101010001
1000000101000111
1000000101100110
1000000110000101
1000000110001111
1000000110000101
1000000111000010
1000001000001010
1000001001100110
1000001010111000
1000001010101110
1000001010001111
1000001010000101
1000001010101110
1000001011000010
1000001011001100
1000001011001100
1000001011100001
1000001011101011
1000001011101011
1000001011101011
1000001011010111
1000001011110101
1000001011110101
1000001011101011
1000001011101011
1000001100000000
1000001100010100
1000001100010100
1000001011110101
1000001100001010
1000001100011110
1000001100111101
1000001100110011
1000001100111101
1000001100111101
1000001100010100
1000001100000000
1000001100010100
1000001100101000
1000001101010001
1000001100101000
1000001100000000
1000001011101011
1000001011110101
1000001100101000
1000001100011110
1000001100101000
1000001100001010
1000001100000000
1000001011110101
1000001100011110
1000001100111101
1000001100010100
1000001011110101
1000001011100001
1000001011100001
1000001011110101
1000001100000000
1000001100010100
1000001011101011
1000001011100001
1000001011100001
1000001011010111
1000001011010111
1000001011000010
1000001011000010
1000001010111000
1000001010111000
1000001011010111
1000001011110101
1000001011100001
1000001011010111
1000001011001100
1000001010101110
1000001010111000
1000001010101110
1000001010101110
1000001010111000
1000001010111000
1000001011101011
1000001011001100
1000001010101110
1000001010101110
1000001010011001
1000001010111000
1000001011010111
1000001100000000
1000001100000000
1000001011000010
1000001010011001
1000001010011001
1000001010111000
1000001011101011
1000001011110101
1000001100000000
1000001011010111
1000001011101011
1000001011110101
1000001100101000
1000001100010100
1000001011100001
1000001011000010
1000001010011001
1000001010000101
1000001001111010
1000001001110000
1000001000001010
1000000110101110
1000000111010111
1000001001010001
1000001011100001
1000001100111101
1000001110000101
1000001110100011
1000001110000101
1000001101011100
1000001100110011
1000001100010100
1000001011100001
1000001010100011
1000001001011100
1000001001100110
1000001011000010
1000001100110011
1000001101000111
1000001100001010
1000001011101011
1000001011110101
1000001100000000
1000001100001010
1000001011001100
1000001010111000
1000001010111000
1000001010100011
1000001010100011
1000001010100011
1000001010001111
1000001010001111
1000001010011001
1000001010111000
1000001010111000
1000001010000101
1000001001011100
1000001000000000
1000000110100011
1000000101100110
1000000110001111
1000000110111000
1000000110111000
1000000110111000
1000000110111000
1000000111000010
1000000111100001
1000001000000000
1000001000000000
1000001000000000
1000000111110101
1000001000000000
1000001000011110
1000001001000111
1000001001011100
1000001001110000
1000001001111010
1000001011000010
1000001011110101
1000001100000000
1000001011101011
1000001011010111
1000001011001100
1000001011001100
1000001011100001
1000001100001010
1000001011110101
1000001011100001
1000001011100001
1000001011101011
1000001100000000
1000001100011110
1000001100011110
1000001011101011
1000001011010111
1000001011100001
1000001100001010
1000001100001010
1000001100001010
1000001100010100
1000001100101000
1000001101000111
1000001110001111
1000001110000101
1000001011101011
1000000101100110
0000000010100011
0000001011001100
0000010100111101
0000011111001100
0000100110101110
0000100111000010
0000011111110101
0000010101011100
0000001010101110
0000000001011100
1000000011010111
1000000100000000
1000000101010001
1000000111000010
1000000111101011
1000001000101000
1000001001011100
1000001010100011
1000001011100001
1000001100010100
1000001100110011
1000001100111101
1000001100111101
1000001101000111
1000001101100110
1000001110011001
1000001111010111
1000001111100001
1000001110111000
1000001110011001
1000001110001111
1000001101111010
1000001101111010
1000001110001111
1000001110000101
1000001110000101
1000001110101110
1000001110111000
1000001111001100
1000001111001100
1000001111000010
1000001110011001
1000001110011001
1000001110011001
1000001110011001
1000001110011001
1000001101111010
1000001101110000
1000001110001111
1000001110100011
1000001110111000
1000001111001100
1000001110111000
1000001110100011
1000001110101110
1000001110100011
1000001111001100
1000001111001100
1000001111000010
1000001110011001
1000001101111010
1000001110000101
1000001110000101
1000001110100011
1000001110011001
1000001110000101
1000001101010001
1000001101110000
1000001110000101
1000001110001111
1000001101111010
1000001101100110
1000001101011100
1000001101010001
1000001101100110
1000001101100110
1000001101011100
1000001101000111
1000001100111101
1000001100111101
1000001100111101
1000001100111101
1000001100101000
1000001100001010
1000001011110101
1000001011100001
1000001011110101
1000001011110101
1000001011010111
1000001010100011
1000001010000101
1000001010001111
1000001010001111
1000001010011001
1000001001111010
1000001001011100
1000001001010001
1000001001000111
1000001001000111
1000001001010001
1000001000110011
1000001000001010
1000000111101011
1000000111000010
1000000110111000
1000000110111000
1000000110000101
1000000101100110
1000000101100110
1000000110001111
1000000110011001
1000000110001111
1000000100111101
1000000100001010
1000000011110101
1000000011100001
1000000011100001
1000000011100001
1000000011010111
1000000100000000
1000000100101000
1000000101000111
1000000101110000
1000000101111010
1000000101111010
1000000101100110
1000000101010001
1000000101011100
1000000110100011
1000000111110101
1000001000010100
1000001000101000
1000001000101000
1000001000111101
1000001001000111
1000001001100110
1000001001011100
1000001001100110
1000001001100110
1000001010000101
1000001010001111
1000001010100011
1000001001110000
1000001001100110
1000001010001111
1000001010001111
1000001010000101
1000001010100011
1000001010001111
1000001001111010
1000001010001111
1000001010100011
1000001010111000
1000001010101110
1000001010100011
1000001010000101
1000001001111010
1000001001111010
1000001010100011
1000001010101110
1000001010011001
1000001010001111
1000001001110000
1000001010100011
1000001010100011
1000001010100011
1000001010000101
1000001001011100
1000001001010001
1000001001100110
1000001001100110
1000001010011001
1000001001100110
1000001001011100
1000001001000111
1000001001100110
1000001001110000
1000001001011100
1000001001011100
1000001000111101
1000001000011110
1000001000110011
1000001001100110
1000001001110000
1000001010000101
1000001010000101
1000001001100110
1000001001111010
1000001001110000
1000001001010001
1000001000111101
1000001000011110
1000001001011100
1000001001000111
1000001001111010
1000001001010001
1000001000110011
1000001000101000
1000001000110011
1000001000101000
1000001000111101
1000001001111010
1000001001100110
1000001001010001
1000001001011100
1000001000111101
1000001001010001
1000001001011100
1000001000111101
1000001000011110
1000001000101000
1000001001011100
1000001001110000
1000001001111010
1000001001110000
1000001000111101
1000001001000111
1000001001010001
1000001001011100
1000001001100110
1000001001011100
1000001001010001
1000001000111101
1000001000101000
1000001000111101
1000001001000111
1000001000111101
1000001000101000
1000001001000111
1000001001011100
1000001001011100
1000001001100110
1000001001011100
1000001001000111
1000001000111101
1000001001000111
1000001001010001
1000001001010001
1000001000110011
1000001000110011
1000001000101000
1000001001011100
1000001010001111
1000001010100011
1000001010000101
1000001001111010
1000001001100110
1000001001110000
1000001001110000
1000001001110000
1000001001100110
1000001000111101
1000001000111101
1000001001010001
1000001001011100
1000001001111010
1000001001010001
1000001001010001
1000001000110011
1000001000101000
1000001000110011
1000001001000111
1000001000111101
1000001000101000
1000001000011110
1000001000101000
1000001000111101
1000001000110011
1000001000000000
1000000111110101
1000001000010100
1000001000011110
1000001000011110
1000001000000000
1000000110101110
1000000101100110
1000000100101000
1000000011110101
1000000011010111
1000000011101011
1000000011101011
1000000100001010
1000000011110101
1000000100010100
1000000100010100
1000000101010001
1000000101010001
1000000101110000
1000000101111010
1000000110100011
1000000110001111
1000000110101110
1000000110100011
1000000110101110
1000000111001100
1000000111101011
1000001000101000
1000001001010001
1000001001100110
1000001001110000
1000001001110000
1000001010001111
1000001010011001
1000001010101110
1000001010000101
1000001001111010
1000001010000101
1000001010001111
1000001010001111
1000001010111000
1000001010000101
1000001001111010
1000001001111010
1000001010011001
1000001010011001
1000001010101110
1000001010011001
1000001001100110
1000001001100110
1000001010000101
1000001010101110
1000001010101110
1000001010111000
1000001011010111
1000001100001010
1000001100010100
1000001011110101
1000001001100110
1000000100001010
0000000010001111
0000001001010001
0000010001011100
0000011010100011
0000100001111010
0000100100101000
0000100000011110
0000010111100001
0000001101100110
0000000101010001
1000000001010001
1000000100101000
1000000100111101
1000000101011100
1000000101111010
1000000110101110
1000000111110101
1000001000111101
1000001001010001
1000001010000101
1000001011000010
1000001011110101
1000001100101000
1000001101111010
1000001101110000
1000001101110000
1000001101011100
1000001101011100
1000001110001111
1000001110000101
1000001101111010
1000001101100110
1000001101110000
1000001110000101
1000001110000101
1000001101110000
1000001101110000
1000001101111010
1000001110000101
1000001110100011
1000001110100011
1000001110001111
1000001101111010
1000001101100110
1000001101011100
1000001101011100
1000001101110000
1000001110000101
1000001101010001
1000001101010001
1000001101110000
1000001101111010
1000001110000101
1000001101111010
1000001101110000
1000001101010001
1000001101011100
1000001101011100
1000001101110000
1000001101011100
1000001101000111
1000001100111101
1000001101000111
1000001101000111
1000001101100110
1000001101000111
1000001100011110
1000001100001010
1000001100010100
1000001100111101
1000001101010001
1000001101010001
1000001101000111
1000001100111101
1000001100110011
1000001101000111
1000001101011100
1000001101000111
1000001101000111
1000001100101000
1000001100101000
1000001100111101
1000001100110011
1000001100011110
1000001100001010
1000001100000000
1000001100000000
1000001100001010
1000001100000000
1000001011110101
1000001011101011
1000001011010111
1000001011001100
1000001011001100
1000001011010111
1000001011001100
1000001010101110
1000001010000101
1000001001110000
1000001001100110
1000001001100110
1000001000111101
1000001000011110
1000001000001010
1000001000011110
1000001000010100
1000001000011110
1000001000101000
1000000111110101
1000000111001100
1000000111100001
1000000110111000
1000000110111000
1000000110100011
1000000110000101
1000000101100110
1000000101100110
1000000101110000
1000000101100110
1000000101011100
1000000100110011
1000000100011110
1000000100101000
1000000100110011
1000000101000111
1000000100110011
1000000101011100
1000000101011100
1000000101100110
1000000110101110
1000000111101011
1000001000000000
1000001000000000
1000000111101011
1000000111110101
1000001000000000
1000001000110011
1000001000010100
1000001000110011
1000001001010001
1000001001110000
1000001010000101
1000001010100011
1000001010001111
1000001010100011
1000001010011001
1000001001110000
1000001010000101
1000001010011001
1000001010011001
1000001010011001
1000001010100011
1000001010001111
1000001010111000
1000001011101011
1000001011001100
1000001011010111
1000001011010111
1000001011001100
1000001011010111
1000001011100001
1000001011010111
1000001010011001
1000001001110000
1000001010001111
1000001010011001
1000001010111000
1000001010111000
1000001010101110
1000001010001111
1000001010100011
1000001011000010
1000001011000010
1000001010100011
1000001001111010
1000001010000101
1000001010011001
1000001010101110
1000001011000010
1000001010101110
1000001010001111
1000001010011001
1000001010101110
1000001011000010
1000001011001100
1000001010101110
1000001010101110
1000001010000101
1000001010001111
1000001010000101
1000001010011001
1000001001111010
1000001001111010
1000001001110000
1000001001110000
1000001001111010
1000001010100011
1000001010011001
1000001010000101
1000001001011100
1000001001011100
1000001001100110
1000001001111010
1000001001011100
1000001001010001
1000001001010001
1000001010000101
1000001010000101
1000001001111010
1000001000111101
1000001000111101
1000001000111101
1000001001110000
1000001001111010
1000001010011001
1000001010101110
1000001010101110
1000001010000101
1000001010001111
1000001010000101
1000001010001111
1000001001011100
1000001001000111
1000001001000111
1000001001010001
1000001001110000
1000001001111010
1000001001111010
1000001001011100
1000001001110000
1000001001111010
1000001010001111
1000001010001111
1000001010011001
1000001010001111
1000001010011001
1000001010000101
1000001001111010
1000001001111010
1000001010100011
1000001010000101
1000001010100011
1000001010000101
1000001010100011
1000001010011001
1000001010001111
1000001001110000
1000001010000101
1000001010000101
1000001010000101
1000001010101110
1000001010011001
1000001010011001
1000001010001111
1000001001111010
1000001010000101
1000001010001111
1000001010001111
1000001001111010
1000001001100110
1000001001011100
1000001010001111
1000001010101110
1000001001110000
1000001000110011
1000001000101000
1000001000101000
1000001000111101
1000001001110000
1000001001110000
1000001000110011
1000001000110011
1000001000110011
1000001001000111
1000001001010001
1000001000101000
1000000110111000
1000000110011001
1000000101111010
1000000100111101
1000000100010100
1000000100101000
1000000101100110
1000000110001111
1000000110111000
1000000111010111
1000000111110101
1000000111101011
1000000111101011
1000000111010111
1000000111010111
1000000111101011
1000001000001010
1000001000001010
1000001000101000
1000001000111101
1000001001000111
1000001001100110
1000001010000101
1000001010111000
1000001010111000
1000001010111000
1000001010100011
1000001010111000
